id,node,max,min,alpha,beta,gamma
1,67,600,0,0.001,0.01,0
2,73,140,0,0.003,0.01,0
3,76,500,0,0.001,0.01,0
4,78,900,0,0.001,0.01,0
5,80,300,0,0.005,0.01,0
6,81,200,0,0.001,0.01,0
7,87,500,0,0.003,0.01,0
8,90,600,0,0.001,0.01,0
9,93,400,0,0.001,0.01,0
10,97,400,0,0.001,0.01,0
11,101,150,0,0.001,0.01,0
12,108,160,0,0.003,0.01,0
13,110,300,0,0.001,0.01,0
